Nominal Size (in),ID (in)
0.125,0.269
0.25,0.364
0.375,0.493
0.5,0.622
0.75,0.824
1.0,1.049
1.25,1.38
1.5,1.61
2.0,2.067
2.5,2.469
3.0,3.068
3.5,3.548
4.0,4.026
4.5,4.506
5.0,5.047
6.0,6.065
8.0,7.981
10.0,10.02
12.0,11.938
14.0,13.25
16.0,15.25
18.0,17.25
20.0,19.25
24.0,23.25
30.0,29.25
36.0,35.25
48.0,47.25
